waveVsWave(?x (OS("/M0" "id") / 2e-06) ?y OS("/M0" "gmoverid")) (L=1.8e-07) X,waveVsWave(?x (OS("/M0" "id") / 2e-06) ?y OS("/M0" "gmoverid")) (L=1.8e-07) Y,waveVsWave(?x (OS("/M0" "id") / 2e-06) ?y OS("/M0" "gmoverid")) (L=3.6e-07) X,waveVsWave(?x (OS("/M0" "id") / 2e-06) ?y OS("/M0" "gmoverid")) (L=3.6e-07) Y,waveVsWave(?x (OS("/M0" "id") / 2e-06) ?y OS("/M0" "gmoverid")) (L=5.4e-07) X,waveVsWave(?x (OS("/M0" "id") / 2e-06) ?y OS("/M0" "gmoverid")) (L=5.4e-07) Y,waveVsWave(?x (OS("/M0" "id") / 2e-06) ?y OS("/M0" "gmoverid")) (L=7.2e-07) X,waveVsWave(?x (OS("/M0" "id") / 2e-06) ?y OS("/M0" "gmoverid")) (L=7.2e-07) Y
0.0005000499635639705,27.22290776592774,0.0004999210135808932,27.33201597064523,0.0004999318552729637,27.26875282899333,0.0004999439542856183,27.19080850086891
0.000511557851125078,27.22040149789356,0.0005115534152987267,27.32775124856863,0.0005115553753092617,27.26333015114923,0.0005115569100950288,27.18449371083735
0.0005234752252628547,27.2178376245683,0.000523470780185058,27.32343658806477,0.0005234727373651612,27.2578414390861,0.0005234742702342878,27.17809791385472
0.000535670199195703,27.21524615240216,0.0005356657456127349,27.31907661659911,0.0005356676998937236,27.25229681093482,0.0005356692307700158,27.1716387457053
0.0005481492399162251,27.21262679937361,0.0005481447778171881,27.31467091120535,0.000548146729184193,27.24669578972064,0.0005481482580551145,27.16511571110496
0.0005609189641918588,27.2099792810895,0.0005609144935654056,27.31021904625536,0.0005609164420033453,27.24103789671776,0.0005609179688562096,27.15852831427974
0.0005739861429143973,27.20730331058698,0.0005739816637486851,27.3057205934451,0.0005739836092422702,27.23532265144317,0.0005739851340642344,27.15187605895656
0.0005873577046899177,27.20459859831979,0.0005873532169726252,27.30117512181259,0.0005873551595063528,27.22954957171834,0.0005873566822844357,27.14515844846669
0.0006010407395124493,27.20186485214401,0.0006010362432307903,27.29658219775787,0.0006010381827889291,27.22371817373156,0.0006010397035100065,27.13837498585229
0.0006150425025231966,27.19910177730259,0.0006150379976639077,27.29194138506341,0.0006150399342305138,27.2178279721035,0.0006150414528812983,27.13152517397654
0.0006293704178572975,27.19630907641314,0.0006293659044066263,27.28725224491654,0.0006293678379655328,27.21187847995515,0.0006293693545326004,27.12460851563599
0.0006440320825801799,27.19348644945238,0.0006440275605239119,27.28251433593225,0.0006440294910587414,27.20586920897751,0.000644031005528505,27.11762451367753
0.0006590352707156801,27.1906335937431,0.0006590307400391118,27.27772721417833,0.0006590326675332555,27.19979966950493,0.000659034179891979,27.1105726711179
0.0006743879373678692,27.18775020394061,0.0006743833980558196,27.27289043320142,0.0006743853224924515,27.1936693705897,0.0006743868327262554,27.10345249126706
0.0006900982229389868,27.18483597201909,0.0006900936749758147,27.26800354405423,0.0006900955963378741,27.1874778200802,0.0006900971044327076,27.09626347785519
0.0007061744574456228,27.18189058725832,0.000706169900815172,27.26306609532518,0.0007061718190853766,27.18122452470113,0.0007061733250270551,27.08900513516246
0.0007226251649353002,27.1789137362314,0.000722620599620982,27.25807763316811,0.0007226225147818287,27.17490899013659,0.0007226240185559912,27.08167696815389
0.000739459068006186,27.17590510279058,0.0007394544939908827,27.25303770133499,0.0007394564060246374,27.16853072111645,0.0007394579076167772,27.07427848261653
0.0007566850924317749,27.17286436805639,0.0007566805096979279,27.24794584120919,0.0007566824185866195,27.16208922150432,0.0007566839179820809,27.06680918530114
0.0007743123718935732,27.16979121040429,0.0007743077804231194,27.24280159184093,0.0007743096861485557,27.15558399438979,0.0007743111833325137,27.05926858406776
0.0007923502528238489,27.16668530545223,0.000792345652598238,27.23760448998407,0.000792347555141984,27.1490145421826,0.0007923490500994672,27.05165618803494
0.000810808299361189,27.16354632605035,0.0008108036903614222,27.23235407013473,0.0008108055897048047,27.1423803667102,0.0008108070824206725,27.04397150773289
0.000829696298421628,27.16037394226804,0.0008296916806281938,27.22704986457187,0.0008296935767523186,27.1356809693183,0.0008296950672112779,27.03621405526078
0.0008490242648877495,27.15716782138307,0.0008490196382806289,27.22169140339939,0.000849021531166377,27.12891585097461,0.0008490230193529652,27.02838334444848
0.00086880244691867,27.15392762787145,0.0008687978114774079,27.21627821458969,0.0008687997011053918,27.12208451237565,0.000868801187004005,27.0204788910215
0.0008890413313838265,27.15065302339535,0.0008890366870874501,27.21080982403015,0.0008890385734380606,27.11518645405686,0.0008890400570329244,27.01250021277131
0.0009097516494232102,27.14734366679378,0.000909746996250271,27.20528575557067,0.000909748879303653,27.10822117650569,0.0009097503605788249,27.00444682972915
0.0009309443821371658,27.14399921407266,0.0009309397200656968,27.19970553107346,0.0009309415998017706,27.10118818027878,0.0009309430787411618,26.99631826434435
0.0009526307664087046,27.14061931839426,0.0009526260954162751,27.19406867046472,0.0009526279718147017,27.09408696612163,0.0009526294484020563,26.98811404166699
0.0009748223008614545,27.137203630069,0.0009748176209251465,27.18837469178847,0.000974819493965362,27.08691703509243,0.0009748209681842512,26.97983368953554
0.0009975307519564361,27.13375179654577,0.0009975260630528165,27.18262311126257,0.0009975279327139944,27.07967788868909,0.0009975294045478432,26.97147673876793
0.001020768160230694,27.13026346240356,0.00102076346233585,27.17681344333691,0.001020765328596927,27.07236902898019,0.001020766798028993,26.96304272335838
0.00104454684668143,27.12673826934362,0.001044542139770939,27.17094520075355,0.00104454400261062,27.06498995873887,0.001044545469623991,26.95453118067797
0.001068879419298741,27.12317585618097,0.001068874703347684,27.16501789460911,0.001068876562744402,27.05754018158171,0.001068878027322023,26.94594165168009
0.001093778779750517,27.11957585883811,0.001093774054733472,27.15903103442001,0.001093775910665438,27.05001920210963,0.00109377737279007,26.93727368111108
0.001119258130223085,27.11593791033746,0.001119253396114164,27.15298412818931,0.001119255248559308,27.04242652605467,0.001119256708213563,26.92852681772483
0.001145330980421228,27.11226164079516,0.00114532623719399,27.1468766824767,0.001145328086130037,27.03476166042869,0.00114532954329636,26.91970061450275
0.001172011154731157,27.10854667741482,0.001172006402358675,27.14070820246998,0.001172008247763068,27.02702411367776,0.001172009702423735,26.91079462887863
0.00119931279955038,27.10479264448281,0.001199308038005213,27.13447819206028,0.001199309879855167,27.01921339583907,0.001199311331992304,26.90180842296773
0.001227250390788356,27.10099916336253,0.001227245620042572,27.12818615391873,0.001227247458315026,27.01132901870333,0.001227248907910589,26.89274156380192
0.001255838741541779,27.09716585249041,0.001255833961566915,27.12183158957626,0.001255835796238573,27.00337049598017,0.001255837243274361,26.88359362356864
0.001285093009948669,27.09329232737202,0.001285088220715775,27.11541399950616,0.00128509005176309,26.99533734346822,0.001285091496220724,26.87436417985557
0.001315028707225462,27.08937820057864,0.001315023908705065,27.10893288320917,0.001315025736104221,26.98722907922982,0.001315027177965182,26.86505281590016
0.00134566170589124,27.08542308174443,0.001345656898053338,27.10238773930133,0.001345658721780279,26.97904522376914,0.001345660161025876,26.85565912084417
0.00137700824818352,27.08142657756443,0.0013770034309976,27.09577806560477,0.001377005251028012,26.97078530021582,0.001377006687639396,26.84618268999345
0.001409084954670142,27.07738829179307,0.00140908012810516,27.0891033592413,0.001409081944414486,26.9624488345118,0.001409083378372656,26.83662312508259
0.001441908833061719,27.07330782524317,0.001441903997086119,27.08236311672888,0.00144190580964953,26.95403535560371,0.001441907240935304,26.82698003454502
0.001475497287229287,27.06918477578555,0.001475492441811009,27.07555683408141,0.001475494250603434,26.94554439563928,0.00147549567919748,26.81725303378786
0.001509868126432167,27.0650187383498,0.001509863271538617,27.06868400691128,0.001509865076534705,26.9369754901683,0.001509866502417543,26.80744174547225
0.001545039574760582,27.06080930492477,0.001545034710358628,27.06174413053512,0.001545036511532816,26.92832817834843,0.001545037934684783,26.7975457997988
0.001581030280798404,27.056556064561,0.001581025406854378,27.05473670008257,0.001581027204180782,26.91960200315574,0.001581028624582109,26.78756483479786
0.001617859327510739,27.05225860337308,0.001617854443990454,27.04766121060885,0.001617856237443004,26.91079651159951,0.001617857655073703,26.77749849662563
0.00165554624236211,27.04791650454273,0.001655541349230848,27.04051715720966,0.001655543138783179,26.90191125494265,0.00165554455362314,26.76734643986441
0.001694111007670115,27.0435293483231,0.001694106104892619,27.03330403514028,0.001694107890518107,26.89294578892608,0.001694109302547069,26.75710832782897
0.001733574071200293,27.0390967120437,0.001733569158740762,27.02602133993805,0.001733570940412558,26.88389967399847,0.001733572349610089,26.74678383287742
0.001773956357007867,27.03461817011562,0.00177395143482997,27.01866856754739,0.001773953212520936,26.87477247555089,0.001773954618866463,26.73637263672719
0.0018152792765319,27.03009329403876,0.00181527434459876,27.01124521444942,0.001815276118281508,26.86556376415615,0.001815277521754295,26.72587443077637
0.001857564739947914,27.02552165240888,0.001857559798222121,27.00375077779483,0.001857561567869006,26.85627311581336,0.001857562968448202,26.71528891642948
0.001900835167785019,27.02090281092559,0.001900830216228602,26.99618475553995,0.001900831981811752,26.84690011219704,0.001900833379476312,26.70461580542877
0.001945113502813531,27.01623633240224,0.001945108541387988,26.98854664658705,0.001945110302879236,26.83744434091204,0.001945111697607988,26.69385482019007
0.001990423222209545,27.01152177677544,0.001990418250875788,26.98083595092828,0.001990420008246735,26.82790539575273,0.001990421400018375,26.68300569414316
0.002036788350002797,27.00675870111677,0.002036783368721243,26.9730521697932,0.002036785121943212,26.81828287696774,0.002036786510736275,26.6720681720777
0.002084233469814613,27.00194665964426,0.002084228478545068,26.96519480580051,0.002084230227589174,26.80857639152938,0.002084231613382052,26.66104201049273
0.002132783737892395,26.99708520373614,0.002132778736594164,26.95726336311328,0.00213278048143122,26.79878555340854,0.002132781864202167,26.64992697795163
0.002182464896447833,26.99217388194457,0.002182459885079621,26.94925734759874,0.002182461625680213,26.78890998385463,0.002182463005407351,26.63872285544091
0.002233303287305752,26.98721224001121,0.002233298265825741,26.94117626699149,0.002233300002160208,26.77894931168012,0.002233301378821506,26.62742943673352
0.00228532586587091,26.98219982088325,0.002285320834236693,26.93301963106143,0.002285322566275107,26.76890317355099,0.002285323939848434,26.61604652875654
0.002338560215420101,26.97713616473123,0.002338555173588735,26.92478695178507,0.002338556901300914,26.75877121428137,0.002338558271763988,26.60457395196244
0.002393034561727194,26.97202080896749,0.002393029509655132,26.91647774352195,0.002393031233010666,26.74855308713407,0.002393032600341056,26.59301154070475
0.002448777788028732,26.96685328826615,0.002448772725671893,26.90809152319458,0.002448774444640138,26.73824845412543,0.002448775808815307,26.581359143617
0.002505819450338355,26.96163313458398,0.002505814377652083,26.89962781047283,0.002505816092202089,26.72785698633588,0.002505817453199367,26.56961662399558
0.002564189793117624,26.95635987718285,0.002564184710056679,26.89108612796325,0.002564186420157321,26.71737836422468,0.002564187777953924,26.55778386018556
0.002623919765312166,26.95103304265324,0.002623914671830754,26.88246600140179,0.002623916377450612,26.70681227795028,0.002623917732023645,26.5458607459701
0.002685041036761131,26.94565215493922,0.00268503593281289,26.87376695985188,0.002685037633920347,26.69615842769534,0.00268503898524676,26.53384719096243
0.00274758601498903,26.9402167353645,0.002747580900527,26.86498853590652,0.002747582597090151,26.68541652399645,0.002747583945146827,26.52174312100074
0.002811587862388549,26.93472630266034,0.002811582737365206,26.8561302658949,0.002811584429351973,26.67458628807863,0.002811585774115642,26.50954847854517
0.002877080513803775,26.9291803729943,0.002877075378171029,26.84719169009399,0.002877077065549029,26.66366745219474,0.002877078406996355,26.49726322307747
0.002944098694522857,26.9235784600006,0.002944093548231998,26.83817235294416,0.002944095230968666,26.65265975996929,0.002944096569076181,26.48488733150201
0.003012677938689781,26.91792007481247,0.003012672781691576,26.82907180326983,0.003012674459754082,26.64156296674673,0.003012675794498231,26.47242079854879
0.003082854608145111,26.91220472609532,0.00308284944038973,26.81988959450481,0.003082851113745026,26.63037683994439,0.00308285244510215,26.45986363717729
0.003154665911705508,26.90643192008145,0.003154660733142506,26.81062528492237,0.003154662401757342,26.61910115940935,0.003154663729703691,26.44721587898161
0.003228149924892248,26.90060116060729,0.003228144735470635,26.80127843786957,0.003228146399311513,26.60773571777991,0.003228147723823258,26.4344775745958
0.003303345610119515,26.89471194915082,0.003303340409787692,26.79184862200719,0.003303342068820921,26.59628032085071,0.003303343389874116,26.4216487940996
0.003380292837352703,26.88876378487176,0.003380287626058469,26.78233541155354,0.003380289280250097,26.58473478794197,0.003380290597820767,26.40872962742361
0.003459032405247916,26.88275616465331,0.003459027182938544,26.77273838653397,0.003459028832254422,26.57309895227244,0.003459030146318482,26.39572018475423
0.003539606062784161,26.87668858314454,0.003539600829406278,26.76305713303449,0.00353960247381208,26.56137266133558,0.003539603784345364,26.38262059693686
0.003622056531399031,26.87056053280642,0.003622051286898718,26.75329124346053,0.003622052926359875,26.54955577727975,0.003622054233338175,26.36943101587816
0.003706427527640295,26.86437150395758,0.003706422271962985,26.74344031680059,0.003706423906444743,26.537648177291,0.003706425209843773,26.35615161494545
0.003792763786344823,26.85812098482378,0.003792758519435446,26.73350395889448,0.003792760148902865,26.52564975397894,0.003792761448698295,26.34278258936416
0.003881111084357879,26.85180846158758,0.003881105806160708,26.72348178270672,0.003881107430578606,26.51356041576564,0.00388110872674603,26.32932415661162
0.003971516264804282,26.84543341844148,0.003971510975263028,26.71337340860458,0.00397151259459607,26.50138008727657,0.003971513887111082,26.31577655680715
0.004064027261925493,26.83899533764146,0.004064021960983269,26.70317846464081,0.004064023575195916,26.48910870973397,0.00406402486403402,26.3021400530981
0.004158693126494841,26.83249369956397,0.004158687814094173,26.69289658684142,0.004158689423150754,26.47674624135227,0.004158690708287437,26.28841493204023
0.004255564051825007,26.82592798276386,0.004255558727907859,26.68252741949811,0.004255560331772431,26.4642926577349,0.004255561613183141,26.27460150397316
0.004354691400381049,26.819297664035,0.004354686064888758,26.67207061546552,0.004354687663525314,26.45174795227266,0.00435468894118549,26.26070010338886
0.00445612773101365,26.81260221847242,0.004456122383886963,26.66152583646283,0.004456123977259249,26.43911213654285,0.004456125251144318,26.24671108929331
0.00455992682682624,26.80584111953762,0.004559921468005356,26.65089275338067,0.004559923056077021,26.42638524070914,0.004559924326162378,26.23263484556038
0.004666143723691821,26.79901383912471,0.004666138353116344,26.64017104659195,0.00466613993585081,26.41356731392193,0.004666141202111873,26.21847178127681
0.004774834739433513,26.79211984762973,0.004774829357042425,26.62936040626763,0.004774830934403049,26.40065842471797,0.004774832196815184,26.20422233107814
0.004886057503685007,26.78515861402237,0.004886052109416784,26.61846053269687,0.004886053681366709,26.38765866142024,0.004886054939905355,26.1898869554738
0.00499987098844675,26.77812960591882,0.004999865582239195,26.60747113661171,0.004999867148741477,26.37456813253607,0.004999868403382063,26.17546614116163
0.005116335539353458,26.77103228965843,0.005116330121143835,26.59639193951562,0.005116331682161366,26.36138696715426,0.005116332932879315,26.16096040132988
0.005235512907670212,26.76386613038197,0.005235507477395244,26.58522267401682,0.00523550903289082,26.34811531534027,0.005235510279661629,26.14637027594624
0.005357466283033994,26.75663059211206,0.005357460840629768,26.57396308416539,0.005357462390566013,26.33475334852857,0.005357463633365217,26.13169633203293
0.00548226032695737,26.74932513783698,0.005482254872359406,26.56261292579453,0.005482256416698947,26.32130125991245,0.005482257655502107,26.11693916392669
0.005609961207113098,26.74194922959605,0.00560995574025639,26.55117196686541,0.005609957278961686,26.30775926483,0.005609958513744384,26.10209939352269
0.005740636632417045,26.73450232856831,0.005740631153235992,26.53963998781621,0.0057406326862694,26.29412760114604,0.005740633917007352,26.08717767050098
0.005874355888928343,26.72698389516305,0.005874350397356763,26.52801678191441,0.005874351924680604,26.28040652962921,0.005874353151349535,26.07217467253501
0.006011189876585768,26.71939338911395,0.006011184372556926,26.51630215561254,0.006011185894133395,26.26659633432388,0.00601118711670917,26.05709110548026
0.006151211146799793,26.71173026957498,0.006151205630246454,26.50449592890734,0.006151207146037699,26.25269732291558,0.006151208364496198,26.04192770354239
0.0062944939409204,26.70399399521937,0.006294488411774705,26.49259793570198,0.006294489921742832,26.23870982709006,0.006294491136060079,26.02668522942332
0.006441114229600772,26.69618402434146,0.006441108687794326,26.48060802417083,0.006441110191901397,26.22463420288456,0.006441111402053513,26.01136447444398
0.00659114975307791,26.68829981496135,0.006591144198541792,26.46852605712743,0.006591145696749832,26.21047083103086,0.006591146902713035,25.9959662586427
0.006744680062391597,26.680340824932,0.006744674495056341,26.45635191239434,0.0067446759873273,26.19622011728928,0.006744677189077966,25.98049143084754
0.006901786561563355,26.67230651204972,0.006901780981358943,26.44408548317568,0.006901782467654833,26.18188249277283,0.006901783665169453,25.96494086872128
0.007062552550757959,26.66419633416718,0.007062546957613904,26.4317266784312,0.007062548437896689,26.16745841426024,0.007062549631151853,25.94931547877781
0.007227063270450347,26.65600974930953,0.007227057664295601,26.41927542325218,0.007227059138527229,26.15294836449788,0.007227060327499764,25.9336161963681
0.007395405946621146,26.64774621579366,0.007395400327384141,26.40673165923878,0.007395401795526614,26.13835285248857,0.007395402980193476,25.91784398563465
0.007567669837005152,26.63940519235004,0.007567664204613771,26.3940953448781,0.007567665666629099,26.12367241376705,0.00756766684696737,25.90199983943263
0.007743946278416748,26.63098613824824,0.007743940632798454,26.38136645592351,0.007743942088648714,26.10890761066087,0.007743943264635734,25.88608477921604
0.007924328735178234,26.62248851342481,0.007924323076259916,26.3685449857737,0.007924324525907224,26.09405903253563,0.007924325697520463,25.87009985488785
0.008108912848675518,26.61391177861503,0.008108907176383668,26.35563094585225,0.008108908619790193,26.07912729602353,0.008108909787007339,25.85404614461147
0.008297796488068681,26.60525539548719,0.008297790802329242,26.34262436598663,0.008297792239457237,26.06411304523422,0.00829779340225621,25.83792475458306
0.008491079802183324,26.59651882678051,0.008491074102921796,26.3295252947864,0.008491075533733657,26.04901695194661,0.008491076692092555,25.82173681876217
